# energy [H], band-resolved DOS
   -0.976371    0.002070
   -0.973704    0.002080
   -0.971037    0.002090
   -0.968370    0.002100
   -0.965703    0.002111
   -0.963036    0.002121
   -0.960369    0.002131
   -0.957702    0.002142
   -0.955035    0.002152
   -0.952368    0.002163
   -0.949700    0.002173
   -0.947033    0.002184
   -0.944366    0.002195
   -0.941699    0.002206
   -0.939032    0.002217
   -0.936365    0.002228
   -0.933698    0.002239
   -0.931031    0.002250
   -0.928364    0.002262
   -0.925697    0.002273
   -0.923030    0.002285
   -0.920363    0.002296
   -0.917696    0.002308
   -0.915028    0.002320
   -0.912361    0.002332
   -0.909694    0.002343
   -0.907027    0.002356
   -0.904360    0.002368
   -0.901693    0.002380
   -0.899026    0.002392
   -0.896359    0.002405
   -0.893692    0.002417
   -0.891025    0.002430
   -0.888358    0.002442
   -0.885691    0.002455
   -0.883023    0.002468
   -0.880356    0.002481
   -0.877689    0.002494
   -0.875022    0.002507
   -0.872355    0.002521
   -0.869688    0.002534
   -0.867021    0.002548
   -0.864354    0.002561
   -0.861687    0.002575
   -0.859020    0.002589
   -0.856353    0.002603
   -0.853686    0.002617
   -0.851018    0.002631
   -0.848351    0.002646
   -0.845684    0.002660
   -0.843017    0.002675
   -0.840350    0.002689
   -0.837683    0.002704
   -0.835016    0.002719
   -0.832349    0.002734
   -0.829682    0.002749
   -0.827015    0.002765
   -0.824348    0.002780
   -0.821681    0.002796
   -0.819013    0.002811
   -0.816346    0.002827
   -0.813679    0.002843
   -0.811012    0.002859
   -0.808345    0.002875
   -0.805678    0.002892
   -0.803011    0.002908
   -0.800344    0.002925
   -0.797677    0.002942
   -0.795010    0.002959
   -0.792343    0.002976
   -0.789676    0.002993
   -0.787009    0.003010
   -0.784341    0.003028
   -0.781674    0.003046
   -0.779007    0.003063
   -0.776340    0.003081
   -0.773673    0.003100
   -0.771006    0.003118
   -0.768339    0.003136
   -0.765672    0.003155
   -0.763005    0.003174
   -0.760338    0.003193
   -0.757671    0.003212
   -0.755004    0.003231
   -0.752336    0.003251
   -0.749669    0.003270
   -0.747002    0.003290
   -0.744335    0.003310
   -0.741668    0.003331
   -0.739001    0.003351
   -0.736334    0.003372
   -0.733667    0.003392
   -0.731000    0.003413
   -0.728333    0.003435
   -0.725666    0.003456
   -0.722999    0.003478
   -0.720331    0.003499
   -0.717664    0.003521
   -0.714997    0.003543
   -0.712330    0.003566
   -0.709663    0.003588
   -0.706996    0.003611
   -0.704329    0.003634
   -0.701662    0.003658
   -0.698995    0.003681
   -0.696328    0.003705
   -0.693661    0.003729
   -0.690994    0.003753
   -0.688327    0.003777
   -0.685659    0.003802
   -0.682992    0.003827
   -0.680325    0.003852
   -0.677658    0.003878
   -0.674991    0.003903
   -0.672324    0.003929
   -0.669657    0.003955
   -0.666990    0.003982
   -0.664323    0.004008
   -0.661656    0.004035
   -0.658989    0.004063
   -0.656322    0.004090
   -0.653654    0.004118
   -0.650987    0.004146
   -0.648320    0.004174
   -0.645653    0.004203
   -0.642986    0.004232
   -0.640319    0.004261
   -0.637652    0.004291
   -0.634985    0.004321
   -0.632318    0.004351
   -0.629651    0.004381
   -0.626984    0.004412
   -0.624317    0.004443
   -0.621649    0.004475
   -0.618982    0.004506
   -0.616315    0.004539
   -0.613648    0.004571
   -0.610981    0.004604
   -0.608314    0.004637
   -0.605647    0.004671
   -0.602980    0.004705
   -0.600313    0.004739
   -0.597646    0.004774
   -0.594979    0.004809
   -0.592312    0.004844
   -0.589644    0.004880
   -0.586977    0.004916
   -0.584310    0.004953
   -0.581643    0.004990
   -0.578976    0.005027
   -0.576309    0.005065
   -0.573642    0.005103
   -0.570975    0.005142
   -0.568308    0.005181
   -0.565641    0.005221
   -0.562974    0.005261
   -0.560307    0.005302
   -0.557640    0.005343
   -0.554972    0.005384
   -0.552305    0.005426
   -0.549638    0.005469
   -0.546971    0.005512
   -0.544304    0.005555
   -0.541637    0.005599
   -0.538970    0.005644
   -0.536303    0.005689
   -0.533636    0.005735
   -0.530969    0.005781
   -0.528302    0.005828
   -0.525635    0.005875
   -0.522967    0.005923
   -0.520300    0.005971
   -0.517633    0.006020
   -0.514966    0.006070
   -0.512299    0.006120
   -0.509632    0.006171
   -0.506965    0.006223
   -0.504298    0.006275
   -0.501631    0.006328
   -0.498964    0.006381
   -0.496297    0.006436
   -0.493630    0.006490
   -0.490962    0.006546
   -0.488295    0.006602
   -0.485628    0.006660
   -0.482961    0.006717
   -0.480294    0.006776
   -0.477627    0.006835
   -0.474960    0.006895
   -0.472293    0.006956
   -0.469626    0.007018
   -0.466959    0.007081
   -0.464292    0.007144
   -0.461625    0.007208
   -0.458958    0.007273
   -0.456290    0.007339
   -0.453623    0.007406
   -0.450956    0.007474
   -0.448289    0.007543
   -0.445622    0.007613
   -0.442955    0.007683
   -0.440288    0.007755
   -0.437621    0.007828
   -0.434954    0.007901
   -0.432287    0.007976
   -0.429620    0.008052
   -0.426953    0.008129
   -0.424285    0.008207
   -0.421618    0.008286
   -0.418951    0.008366
   -0.416284    0.008448
   -0.413617    0.008530
   -0.410950    0.008614
   -0.408283    0.008699
   -0.405616    0.008786
   -0.402949    0.008874
   -0.400282    0.008963
   -0.397615    0.009053
   -0.394948    0.009145
   -0.392280    0.009238
   -0.389613    0.009332
   -0.386946    0.009428
   -0.384279    0.009526
   -0.381612    0.009625
   -0.378945    0.009726
   -0.376278    0.009828
   -0.373611    0.009931
   -0.370944    0.010037
   -0.368277    0.010144
   -0.365610    0.010253
   -0.362943    0.010364
   -0.360275    0.010476
   -0.357608    0.010590
   -0.354941    0.010706
   -0.352274    0.010824
   -0.349607    0.010944
   -0.346940    0.011066
   -0.344273    0.011190
   -0.341606    0.011317
   -0.338939    0.011445
   -0.336272    0.011575
   -0.333605    0.011708
   -0.330938    0.011843
   -0.328271    0.011981
   -0.325603    0.012120
   -0.322936    0.012263
   -0.320269    0.012408
   -0.317602    0.012555
   -0.314935    0.012705
   -0.312268    0.012858
   -0.309601    0.013013
   -0.306934    0.013171
   -0.304267    0.013333
   -0.301600    0.013497
   -0.298933    0.013664
   -0.296266    0.013835
   -0.293598    0.014008
   -0.290931    0.014185
   -0.288264    0.014365
   -0.285597    0.014549
   -0.282930    0.014736
   -0.280263    0.014927
   -0.277596    0.015122
   -0.274929    0.015320
   -0.272262    0.015523
   -0.269595    0.015729
   -0.266928    0.015940
   -0.264261    0.016154
   -0.261593    0.016374
   -0.258926    0.016597
   -0.256259    0.016826
   -0.253592    0.017059
   -0.250925    0.017297
   -0.248258    0.017539
   -0.245591    0.017788
   -0.242924    0.018041
   -0.240257    0.018300
   -0.237590    0.018564
   -0.234923    0.018834
   -0.232256    0.019111
   -0.229589    0.019393
   -0.226921    0.019681
   -0.224254    0.019977
   -0.221587    0.020278
   -0.218920    0.020587
   -0.216253    0.020903
   -0.213586    0.021226
   -0.210919    0.021556
   -0.208252    0.021895
   -0.205585    0.022241
   -0.202918    0.022596
   -0.200251    0.022959
   -0.197584    0.023331
   -0.194916    0.023712
   -0.192249    0.024103
   -0.189582    0.024503
   -0.186915    0.024914
   -0.184248    0.025335
   -0.181581    0.025766
   -0.178914    0.026209
   -0.176247    0.026663
   -0.173580    0.027129
   -0.170913    0.027608
   -0.168246    0.028099
   -0.165579    0.028603
   -0.162911    0.029121
   -0.160244    0.029653
   -0.157577    0.030200
   -0.154910    0.030763
   -0.152243    0.031341
   -0.149576    0.031936
   -0.146909    0.032547
   -0.144242    0.033177
   -0.141575    0.033824
   -0.138908    0.034491
   -0.136241    0.035178
   -0.133574    0.035886
   -0.130906    0.036615
   -0.128239    0.037367
   -0.125572    0.038142
   -0.122905    0.038941
   -0.120238    0.039766
   -0.117571    0.040617
   -0.114904    0.041496
   -0.112237    0.042404
   -0.109570    0.043341
   -0.106903    0.044311
   -0.104236    0.045313
   -0.101569    0.046349
   -0.098902    0.047422
   -0.096234    0.048532
   -0.093567    0.049681
   -0.090900    0.050872
   -0.088233    0.052106
   -0.085566    0.053386
   -0.082899    0.054713
   -0.080232    0.056090
   -0.077565    0.057520
   -0.074898    0.059005
   -0.072231    0.060549
   -0.069564    0.062154
   -0.066897    0.063823
   -0.064229    0.065561
   -0.061562    0.067371
   -0.058895    0.069256
   -0.056228    0.071222
   -0.053561    0.073273
   -0.050894    0.075413
   -0.048227    0.077648
   -0.045560    0.079985
   -0.042893    0.082428
   -0.040226    0.084985
   -0.037559    0.087663
   -0.034892    0.090469
   -0.032224    0.093412
   -0.029557    0.096501
   -0.026890    0.099745
   -0.024223    0.103156
   -0.021556    0.106744
   -0.018889    0.110523
   -0.016222    0.114506
   -0.013555    0.118708
   -0.010888    0.123146
   -0.008221    0.127836
   -0.005554    0.132800
   -0.002887    0.138058
   -0.000219    0.143634
    0.002448    0.149554
    0.005115    0.155848
    0.007782    0.162547
    0.010449    0.169687
    0.013116    0.177307
    0.015783    0.185451
    0.018450    0.194169
    0.021117    0.203515
    0.023784    0.213551
    0.026451    0.224346
    0.029118    0.235980
    0.031785    0.248540
    0.034453    0.262129
    0.037120    0.276860
    0.039787    0.292866
    0.042454    0.310297
    0.045121    0.329328
    0.047788    0.350158
    0.050455    0.373023
    0.053122    0.398195
    0.055789    0.425994
    0.058456    0.456796
    0.061123    0.491049
    0.063790    0.529286
    0.066458    0.572146
    0.069125    0.620402
    0.071792    0.674991
    0.074459    0.737067
    0.077126    0.808052
    0.079793    0.889723
    0.082460    0.984315
    0.085127    1.094679
    0.087794    1.224481
    0.090461    1.378509
    0.093128    1.563093
    0.095795    1.786735
    0.098463    2.061051
    0.101130    2.402196
    0.103797    2.833112
    0.106464    3.387091
    0.109131    4.113615
    0.111798    5.088059
    0.114465    6.428024
    0.117132    8.320452
    0.119799   11.063224
    0.122466   15.110274
    0.125133   21.027178
    0.127800   28.967326
    0.130467   36.937717
    0.133135   39.666271
    0.135802   34.560385
    0.138469   26.146401
    0.141136   18.816697
    0.143803   13.581570
    0.146470   10.030001
    0.149137    7.612704
    0.151804    5.931035
    0.154471    4.729548
    0.157138    3.848292
    0.159805    3.186122
    0.162472    2.677708
    0.165140    2.279811
    0.167807    1.963098
    0.170474    1.707208
    0.173141    1.497698
    0.175808    1.324122
    0.178475    1.178785
    0.181142    1.055932
    0.183809    0.951187
    0.186476    0.861185
    0.189143    0.783299
    0.191810    0.715462
    0.194477    0.656025
    0.197145    0.603663
    0.199812    0.557302
    0.202479    0.516061
    0.205146    0.479217
    0.207813    0.446169
    0.210480    0.416414
    0.213147    0.389529
    0.215814    0.365160
    0.218481    0.343001
    0.221148    0.322795
    0.223815    0.304318
    0.226482    0.287380
    0.229150    0.271815
    0.231817    0.257478
    0.234484    0.244245
    0.237151    0.232004
    0.239818    0.220659
    0.242485    0.210124
    0.245152    0.200326
    0.247819    0.191196
    0.250486    0.182675
    0.253153    0.174711
    0.255820    0.167256
    0.258487    0.160267
    0.261154    0.153707
    0.263822    0.147541
    0.266489    0.141738
    0.269156    0.136271
    0.271823    0.131114
    0.274490    0.126243
    0.277157    0.121639
    0.279824    0.117282
    0.282491    0.113155
    0.285158    0.109242
    0.287825    0.105528
    0.290492    0.102000
    0.293159    0.098646
    0.295827    0.095454
    0.298494    0.092415
    0.301161    0.089519
    0.303828    0.086756
    0.306495    0.084120
    0.309162    0.081601
    0.311829    0.079194
    0.314496    0.076892
    0.317163    0.074689
    0.319830    0.072579
    0.322497    0.070558
    0.325164    0.068619
    0.327832    0.066759
    0.330499    0.064974
    0.333166    0.063260
    0.335833    0.061612
    0.338500    0.060028
    0.341167    0.058504
    0.343834    0.057037
    0.346501    0.055625
    0.349168    0.054265
    0.351835    0.052954
    0.354502    0.051690
