# energy [H], band-resolved DOS
   -0.924810    0.002540
   -0.922360    0.002552
   -0.919909    0.002565
   -0.917458    0.002578
   -0.915008    0.002590
   -0.912557    0.002603
   -0.910106    0.002616
   -0.907656    0.002629
   -0.905205    0.002642
   -0.902754    0.002656
   -0.900304    0.002669
   -0.897853    0.002682
   -0.895402    0.002696
   -0.892952    0.002710
   -0.890501    0.002723
   -0.888050    0.002737
   -0.885600    0.002751
   -0.883149    0.002765
   -0.880699    0.002779
   -0.878248    0.002794
   -0.875797    0.002808
   -0.873347    0.002823
   -0.870896    0.002837
   -0.868445    0.002852
   -0.865995    0.002867
   -0.863544    0.002882
   -0.861093    0.002897
   -0.858643    0.002912
   -0.856192    0.002927
   -0.853741    0.002943
   -0.851291    0.002958
   -0.848840    0.002974
   -0.846389    0.002990
   -0.843939    0.003006
   -0.841488    0.003022
   -0.839038    0.003038
   -0.836587    0.003054
   -0.834136    0.003071
   -0.831686    0.003087
   -0.829235    0.003104
   -0.826784    0.003121
   -0.824334    0.003138
   -0.821883    0.003155
   -0.819432    0.003172
   -0.816982    0.003190
   -0.814531    0.003207
   -0.812080    0.003225
   -0.809630    0.003243
   -0.807179    0.003261
   -0.804728    0.003279
   -0.802278    0.003298
   -0.799827    0.003316
   -0.797376    0.003335
   -0.794926    0.003353
   -0.792475    0.003372
   -0.790025    0.003391
   -0.787574    0.003411
   -0.785123    0.003430
   -0.782673    0.003450
   -0.780222    0.003469
   -0.777771    0.003489
   -0.775321    0.003510
   -0.772870    0.003530
   -0.770419    0.003550
   -0.767969    0.003571
   -0.765518    0.003592
   -0.763067    0.003613
   -0.760617    0.003634
   -0.758166    0.003655
   -0.755715    0.003677
   -0.753265    0.003699
   -0.750814    0.003721
   -0.748364    0.003743
   -0.745913    0.003765
   -0.743462    0.003788
   -0.741012    0.003810
   -0.738561    0.003833
   -0.736110    0.003856
   -0.733660    0.003880
   -0.731209    0.003903
   -0.728758    0.003927
   -0.726308    0.003951
   -0.723857    0.003975
   -0.721406    0.004000
   -0.718956    0.004024
   -0.716505    0.004049
   -0.714054    0.004075
   -0.711604    0.004100
   -0.709153    0.004126
   -0.706703    0.004151
   -0.704252    0.004178
   -0.701801    0.004204
   -0.699351    0.004230
   -0.696900    0.004257
   -0.694449    0.004284
   -0.691999    0.004312
   -0.689548    0.004339
   -0.687097    0.004367
   -0.684647    0.004395
   -0.682196    0.004424
   -0.679745    0.004453
   -0.677295    0.004482
   -0.674844    0.004511
   -0.672393    0.004540
   -0.669943    0.004570
   -0.667492    0.004600
   -0.665042    0.004631
   -0.662591    0.004662
   -0.660140    0.004693
   -0.657690    0.004724
   -0.655239    0.004756
   -0.652788    0.004788
   -0.650338    0.004820
   -0.647887    0.004853
   -0.645436    0.004886
   -0.642986    0.004919
   -0.640535    0.004953
   -0.638084    0.004987
   -0.635634    0.005021
   -0.633183    0.005056
   -0.630732    0.005091
   -0.628282    0.005127
   -0.625831    0.005162
   -0.623380    0.005199
   -0.620930    0.005235
   -0.618479    0.005272
   -0.616029    0.005310
   -0.613578    0.005347
   -0.611127    0.005386
   -0.608677    0.005424
   -0.606226    0.005463
   -0.603775    0.005503
   -0.601325    0.005542
   -0.598874    0.005583
   -0.596423    0.005623
   -0.593973    0.005665
   -0.591522    0.005706
   -0.589071    0.005748
   -0.586621    0.005791
   -0.584170    0.005834
   -0.581719    0.005877
   -0.579269    0.005921
   -0.576818    0.005966
   -0.574368    0.006011
   -0.571917    0.006057
   -0.569466    0.006103
   -0.567016    0.006149
   -0.564565    0.006196
   -0.562114    0.006244
   -0.559664    0.006292
   -0.557213    0.006341
   -0.554762    0.006390
   -0.552312    0.006440
   -0.549861    0.006491
   -0.547410    0.006542
   -0.544960    0.006593
   -0.542509    0.006646
   -0.540058    0.006699
   -0.537608    0.006752
   -0.535157    0.006806
   -0.532707    0.006861
   -0.530256    0.006917
   -0.527805    0.006973
   -0.525355    0.007030
   -0.522904    0.007087
   -0.520453    0.007146
   -0.518003    0.007205
   -0.515552    0.007264
   -0.513101    0.007325
   -0.510651    0.007386
   -0.508200    0.007448
   -0.505749    0.007511
   -0.503299    0.007575
   -0.500848    0.007639
   -0.498397    0.007704
   -0.495947    0.007771
   -0.493496    0.007837
   -0.491045    0.007905
   -0.488595    0.007974
   -0.486144    0.008044
   -0.483694    0.008114
   -0.481243    0.008186
   -0.478792    0.008258
   -0.476342    0.008331
   -0.473891    0.008406
   -0.471440    0.008481
   -0.468990    0.008557
   -0.466539    0.008635
   -0.464088    0.008713
   -0.461638    0.008793
   -0.459187    0.008873
   -0.456736    0.008955
   -0.454286    0.009038
   -0.451835    0.009122
   -0.449384    0.009207
   -0.446934    0.009294
   -0.444483    0.009381
   -0.442033    0.009470
   -0.439582    0.009560
   -0.437131    0.009652
   -0.434681    0.009744
   -0.432230    0.009839
   -0.429779    0.009934
   -0.427329    0.010031
   -0.424878    0.010129
   -0.422427    0.010229
   -0.419977    0.010330
   -0.417526    0.010433
   -0.415075    0.010537
   -0.412625    0.010643
   -0.410174    0.010750
   -0.407723    0.010859
   -0.405273    0.010970
   -0.402822    0.011083
   -0.400372    0.011197
   -0.397921    0.011313
   -0.395470    0.011431
   -0.393020    0.011550
   -0.390569    0.011672
   -0.388118    0.011795
   -0.385668    0.011920
   -0.383217    0.012048
   -0.380766    0.012177
   -0.378316    0.012309
   -0.375865    0.012443
   -0.373414    0.012578
   -0.370964    0.012717
   -0.368513    0.012857
   -0.366062    0.013000
   -0.363612    0.013145
   -0.361161    0.013292
   -0.358711    0.013443
   -0.356260    0.013595
   -0.353809    0.013750
   -0.351359    0.013908
   -0.348908    0.014069
   -0.346457    0.014232
   -0.344007    0.014399
   -0.341556    0.014568
   -0.339105    0.014740
   -0.336655    0.014916
   -0.334204    0.015094
   -0.331753    0.015276
   -0.329303    0.015461
   -0.326852    0.015649
   -0.324401    0.015841
   -0.321951    0.016037
   -0.319500    0.016236
   -0.317049    0.016438
   -0.314599    0.016645
   -0.312148    0.016855
   -0.309698    0.017070
   -0.307247    0.017289
   -0.304796    0.017511
   -0.302346    0.017739
   -0.299895    0.017970
   -0.297444    0.018207
   -0.294994    0.018447
   -0.292543    0.018693
   -0.290092    0.018944
   -0.287642    0.019200
   -0.285191    0.019461
   -0.282740    0.019727
   -0.280290    0.019999
   -0.277839    0.020276
   -0.275388    0.020559
   -0.272938    0.020849
   -0.270487    0.021144
   -0.268037    0.021446
   -0.265586    0.021754
   -0.263135    0.022069
   -0.260685    0.022391
   -0.258234    0.022720
   -0.255783    0.023056
   -0.253333    0.023400
   -0.250882    0.023751
   -0.248431    0.024111
   -0.245981    0.024478
   -0.243530    0.024854
   -0.241079    0.025239
   -0.238629    0.025633
   -0.236178    0.026036
   -0.233727    0.026449
   -0.231277    0.026872
   -0.228826    0.027305
   -0.226376    0.027748
   -0.223925    0.028202
   -0.221474    0.028668
   -0.219024    0.029145
   -0.216573    0.029634
   -0.214122    0.030136
   -0.211672    0.030650
   -0.209221    0.031178
   -0.206770    0.031719
   -0.204320    0.032275
   -0.201869    0.032845
   -0.199418    0.033431
   -0.196968    0.034032
   -0.194517    0.034650
   -0.192066    0.035285
   -0.189616    0.035937
   -0.187165    0.036608
   -0.184715    0.037298
   -0.182264    0.038007
   -0.179813    0.038737
   -0.177363    0.039487
   -0.174912    0.040260
   -0.172461    0.041056
   -0.170011    0.041876
   -0.167560    0.042720
   -0.165109    0.043591
   -0.162659    0.044488
   -0.160208    0.045413
   -0.157757    0.046367
   -0.155307    0.047351
   -0.152856    0.048368
   -0.150405    0.049417
   -0.147955    0.050501
   -0.145504    0.051621
   -0.143053    0.052778
   -0.140603    0.053975
   -0.138152    0.055213
   -0.135702    0.056494
   -0.133251    0.057820
   -0.130800    0.059194
   -0.128350    0.060617
   -0.125899    0.062091
   -0.123448    0.063621
   -0.120998    0.065207
   -0.118547    0.066853
   -0.116096    0.068563
   -0.113646    0.070339
   -0.111195    0.072185
   -0.108744    0.074104
   -0.106294    0.076101
   -0.103843    0.078180
   -0.101392    0.080345
   -0.098942    0.082601
   -0.096491    0.084953
   -0.094041    0.087408
   -0.091590    0.089970
   -0.089139    0.092646
   -0.086689    0.095444
   -0.084238    0.098370
   -0.081787    0.101432
   -0.079337    0.104640
   -0.076886    0.108002
   -0.074435    0.111529
   -0.071985    0.115231
   -0.069534    0.119121
   -0.067083    0.123210
   -0.064633    0.127514
   -0.062182    0.132046
   -0.059731    0.136825
   -0.057281    0.141867
   -0.054830    0.147193
   -0.052380    0.152824
   -0.049929    0.158784
   -0.047478    0.165100
   -0.045028    0.171799
   -0.042577    0.178913
   -0.040126    0.186479
   -0.037676    0.194533
   -0.035225    0.203120
   -0.032774    0.212287
   -0.030324    0.222088
   -0.027873    0.232583
   -0.025422    0.243837
   -0.022972    0.255927
   -0.020521    0.268936
   -0.018070    0.282961
   -0.015620    0.298109
   -0.013169    0.314504
   -0.010719    0.332285
   -0.008268    0.351614
   -0.005817    0.372673
   -0.003367    0.395676
   -0.000916    0.420869
    0.001535    0.448536
    0.003985    0.479012
    0.006436    0.512689
    0.008887    0.550029
    0.011337    0.591580
    0.013788    0.637995
    0.016239    0.690061
    0.018689    0.748726
    0.021140    0.815146
    0.023591    0.890740
    0.026041    0.977262
    0.028492    1.076903
    0.030943    1.192424
    0.033393    1.327345
    0.035844    1.486203
    0.038294    1.674916
    0.040745    1.901317
    0.043196    2.175928
    0.045646    2.513107
    0.048097    2.932805
    0.050548    3.463276
    0.052998    4.145348
    0.055449    5.039270
    0.057900    6.235756
    0.060350    7.873623
    0.062801   10.166316
    0.065252   13.433890
    0.067702   18.106100
    0.070153   24.546952
    0.072604   32.296245
    0.075054   38.602148
    0.077505   39.117382
    0.079955   33.400448
    0.082406   25.619873
    0.084857   18.924510
    0.087307   14.011941
    0.089758   10.569627
    0.092209    8.158564
    0.094659    6.441336
    0.097110    5.191007
    0.099561    4.259828
    0.102011    3.551407
    0.104462    3.001898
    0.106913    2.568162
    0.109363    2.220439
    0.111814    1.937774
    0.114265    1.705124
    0.116715    1.511497
    0.119166    1.348725
    0.121616    1.210649
    0.124067    1.092560
    0.126518    0.990808
    0.128968    0.902535
    0.131419    0.825478
    0.133870    0.757825
    0.136320    0.698115
    0.138771    0.645158
    0.141222    0.597977
    0.143672    0.555766
    0.146123    0.517853
    0.148574    0.483677
    0.151024    0.452763
    0.153475    0.424711
    0.155926    0.399179
    0.158376    0.375876
    0.160827    0.354549
    0.163277    0.334982
    0.165728    0.316987
    0.168179    0.300401
    0.170629    0.285080
    0.173080    0.270900
    0.175531    0.257750
    0.177981    0.245533
    0.180432    0.234162
    0.182883    0.223562
    0.185333    0.213665
    0.187784    0.204409
    0.190235    0.195741
    0.192685    0.187613
    0.195136    0.179979
    0.197587    0.172802
    0.200037    0.166044
    0.202488    0.159676
    0.204939    0.153666
    0.207389    0.147988
    0.209840    0.142620
    0.212290    0.137538
    0.214741    0.132722
    0.217192    0.128155
    0.219642    0.123819
    0.222093    0.119700
    0.224544    0.115782
    0.226994    0.112054
    0.229445    0.108502
    0.231896    0.105117
    0.234346    0.101887
    0.236797    0.098804
    0.239248    0.095859
    0.241698    0.093043
    0.244149    0.090350
    0.246600    0.087772
    0.249050    0.085302
    0.251501    0.082935
    0.253951    0.080666
    0.256402    0.078488
    0.258853    0.076397
    0.261303    0.074388
    0.263754    0.072458
    0.266205    0.070602
    0.268655    0.068816
    0.271106    0.067097
    0.273557    0.065441
    0.276007    0.063846
    0.278458    0.062309
    0.280909    0.060827
    0.283359    0.059396
    0.285810    0.058016
    0.288261    0.056683
    0.290711    0.055396
    0.293162    0.054152
    0.295612    0.052949
    0.298063    0.051786
