# energy [H], band-resolved DOS
   -0.800264    0.003241
   -0.798132    0.003257
   -0.796001    0.003272
   -0.793869    0.003288
   -0.791738    0.003304
   -0.789606    0.003320
   -0.787475    0.003337
   -0.785343    0.003353
   -0.783212    0.003369
   -0.781080    0.003386
   -0.778948    0.003403
   -0.776817    0.003420
   -0.774685    0.003437
   -0.772554    0.003454
   -0.770422    0.003471
   -0.768291    0.003488
   -0.766159    0.003506
   -0.764028    0.003523
   -0.761896    0.003541
   -0.759765    0.003559
   -0.757633    0.003577
   -0.755502    0.003595
   -0.753370    0.003613
   -0.751239    0.003632
   -0.749107    0.003650
   -0.746976    0.003669
   -0.744844    0.003688
   -0.742713    0.003707
   -0.740581    0.003726
   -0.738450    0.003745
   -0.736318    0.003765
   -0.734187    0.003784
   -0.732055    0.003804
   -0.729924    0.003824
   -0.727792    0.003844
   -0.725661    0.003864
   -0.723529    0.003885
   -0.721398    0.003905
   -0.719266    0.003926
   -0.717135    0.003947
   -0.715003    0.003968
   -0.712872    0.003989
   -0.710740    0.004010
   -0.708609    0.004032
   -0.706477    0.004053
   -0.704346    0.004075
   -0.702214    0.004097
   -0.700083    0.004120
   -0.697951    0.004142
   -0.695820    0.004165
   -0.693688    0.004187
   -0.691557    0.004210
   -0.689425    0.004234
   -0.687294    0.004257
   -0.685162    0.004281
   -0.683031    0.004304
   -0.680899    0.004328
   -0.678768    0.004352
   -0.676636    0.004377
   -0.674504    0.004401
   -0.672373    0.004426
   -0.670241    0.004451
   -0.668110    0.004476
   -0.665978    0.004502
   -0.663847    0.004527
   -0.661715    0.004553
   -0.659584    0.004579
   -0.657452    0.004606
   -0.655321    0.004632
   -0.653189    0.004659
   -0.651058    0.004686
   -0.648926    0.004713
   -0.646795    0.004740
   -0.644663    0.004768
   -0.642532    0.004796
   -0.640400    0.004824
   -0.638269    0.004853
   -0.636137    0.004881
   -0.634006    0.004910
   -0.631874    0.004939
   -0.629743    0.004969
   -0.627611    0.004999
   -0.625480    0.005029
   -0.623348    0.005059
   -0.621217    0.005089
   -0.619085    0.005120
   -0.616954    0.005151
   -0.614822    0.005183
   -0.612691    0.005214
   -0.610559    0.005246
   -0.608428    0.005279
   -0.606296    0.005311
   -0.604165    0.005344
   -0.602033    0.005377
   -0.599902    0.005411
   -0.597770    0.005444
   -0.595639    0.005478
   -0.593507    0.005513
   -0.591376    0.005548
   -0.589244    0.005583
   -0.587113    0.005618
   -0.584981    0.005654
   -0.582850    0.005690
   -0.580718    0.005726
   -0.578587    0.005763
   -0.576455    0.005800
   -0.574324    0.005838
   -0.572192    0.005876
   -0.570060    0.005914
   -0.567929    0.005952
   -0.565797    0.005991
   -0.563666    0.006031
   -0.561534    0.006071
   -0.559403    0.006111
   -0.557271    0.006151
   -0.555140    0.006192
   -0.553008    0.006234
   -0.550877    0.006275
   -0.548745    0.006318
   -0.546614    0.006360
   -0.544482    0.006403
   -0.542351    0.006447
   -0.540219    0.006491
   -0.538088    0.006535
   -0.535956    0.006580
   -0.533825    0.006625
   -0.531693    0.006671
   -0.529562    0.006717
   -0.527430    0.006764
   -0.525299    0.006811
   -0.523167    0.006859
   -0.521036    0.006907
   -0.518904    0.006956
   -0.516773    0.007005
   -0.514641    0.007055
   -0.512510    0.007105
   -0.510378    0.007156
   -0.508247    0.007208
   -0.506115    0.007260
   -0.503984    0.007312
   -0.501852    0.007365
   -0.499721    0.007419
   -0.497589    0.007473
   -0.495458    0.007528
   -0.493326    0.007584
   -0.491195    0.007640
   -0.489063    0.007696
   -0.486932    0.007754
   -0.484800    0.007812
   -0.482669    0.007870
   -0.480537    0.007930
   -0.478406    0.007990
   -0.476274    0.008050
   -0.474143    0.008112
   -0.472011    0.008174
   -0.469880    0.008237
   -0.467748    0.008300
   -0.465616    0.008364
   -0.463485    0.008429
   -0.461353    0.008495
   -0.459222    0.008562
   -0.457090    0.008629
   -0.454959    0.008697
   -0.452827    0.008766
   -0.450696    0.008836
   -0.448564    0.008906
   -0.446433    0.008978
   -0.444301    0.009050
   -0.442170    0.009123
   -0.440038    0.009197
   -0.437907    0.009272
   -0.435775    0.009348
   -0.433644    0.009425
   -0.431512    0.009503
   -0.429381    0.009581
   -0.427249    0.009661
   -0.425118    0.009742
   -0.422986    0.009824
   -0.420855    0.009906
   -0.418723    0.009990
   -0.416592    0.010075
   -0.414460    0.010161
   -0.412329    0.010248
   -0.410197    0.010336
   -0.408066    0.010426
   -0.405934    0.010516
   -0.403803    0.010608
   -0.401671    0.010701
   -0.399540    0.010795
   -0.397408    0.010890
   -0.395277    0.010987
   -0.393145    0.011085
   -0.391014    0.011184
   -0.388882    0.011284
   -0.386751    0.011386
   -0.384619    0.011490
   -0.382488    0.011594
   -0.380356    0.011701
   -0.378225    0.011808
   -0.376093    0.011917
   -0.373962    0.012028
   -0.371830    0.012140
   -0.369699    0.012254
   -0.367567    0.012369
   -0.365436    0.012486
   -0.363304    0.012605
   -0.361172    0.012726
   -0.359041    0.012848
   -0.356909    0.012972
   -0.354778    0.013097
   -0.352646    0.013225
   -0.350515    0.013354
   -0.348383    0.013486
   -0.346252    0.013619
   -0.344120    0.013754
   -0.341989    0.013891
   -0.339857    0.014031
   -0.337726    0.014172
   -0.335594    0.014316
   -0.333463    0.014461
   -0.331331    0.014609
   -0.329200    0.014760
   -0.327068    0.014912
   -0.324937    0.015067
   -0.322805    0.015225
   -0.320674    0.015385
   -0.318542    0.015547
   -0.316411    0.015712
   -0.314279    0.015880
   -0.312148    0.016050
   -0.310016    0.016223
   -0.307885    0.016399
   -0.305753    0.016578
   -0.303622    0.016760
   -0.301490    0.016945
   -0.299359    0.017133
   -0.297227    0.017324
   -0.295096    0.017518
   -0.292964    0.017715
   -0.290833    0.017916
   -0.288701    0.018120
   -0.286570    0.018328
   -0.284438    0.018539
   -0.282307    0.018755
   -0.280175    0.018973
   -0.278044    0.019196
   -0.275912    0.019423
   -0.273781    0.019653
   -0.271649    0.019888
   -0.269518    0.020127
   -0.267386    0.020370
   -0.265255    0.020618
   -0.263123    0.020871
   -0.260992    0.021127
   -0.258860    0.021389
   -0.256728    0.021656
   -0.254597    0.021928
   -0.252465    0.022204
   -0.250334    0.022487
   -0.248202    0.022774
   -0.246071    0.023067
   -0.243939    0.023366
   -0.241808    0.023670
   -0.239676    0.023981
   -0.237545    0.024298
   -0.235413    0.024621
   -0.233282    0.024950
   -0.231150    0.025287
   -0.229019    0.025630
   -0.226887    0.025980
   -0.224756    0.026337
   -0.222624    0.026702
   -0.220493    0.027074
   -0.218361    0.027454
   -0.216230    0.027842
   -0.214098    0.028239
   -0.211967    0.028644
   -0.209835    0.029058
   -0.207704    0.029481
   -0.205572    0.029913
   -0.203441    0.030354
   -0.201309    0.030806
   -0.199178    0.031268
   -0.197046    0.031740
   -0.194915    0.032223
   -0.192783    0.032717
   -0.190652    0.033222
   -0.188520    0.033740
   -0.186389    0.034269
   -0.184257    0.034811
   -0.182126    0.035366
   -0.179994    0.035935
   -0.177863    0.036517
   -0.175731    0.037113
   -0.173600    0.037724
   -0.171468    0.038351
   -0.169337    0.038993
   -0.167205    0.039651
   -0.165074    0.040326
   -0.162942    0.041019
   -0.160811    0.041729
   -0.158679    0.042459
   -0.156548    0.043207
   -0.154416    0.043975
   -0.152284    0.044765
   -0.150153    0.045575
   -0.148021    0.046408
   -0.145890    0.047263
   -0.143758    0.048143
   -0.141627    0.049047
   -0.139495    0.049978
   -0.137364    0.050934
   -0.135232    0.051919
   -0.133101    0.052932
   -0.130969    0.053975
   -0.128838    0.055050
   -0.126706    0.056157
   -0.124575    0.057297
   -0.122443    0.058473
   -0.120312    0.059685
   -0.118180    0.060935
   -0.116049    0.062225
   -0.113917    0.063556
   -0.111786    0.064930
   -0.109654    0.066350
   -0.107523    0.067816
   -0.105391    0.069332
   -0.103260    0.070899
   -0.101128    0.072519
   -0.098997    0.074196
   -0.096865    0.075932
   -0.094734    0.077729
   -0.092602    0.079591
   -0.090471    0.081520
   -0.088339    0.083520
   -0.086208    0.085595
   -0.084076    0.087748
   -0.081945    0.089983
   -0.079813    0.092305
   -0.077682    0.094718
   -0.075550    0.097226
   -0.073419    0.099835
   -0.071287    0.102551
   -0.069156    0.105379
   -0.067024    0.108325
   -0.064893    0.111397
   -0.062761    0.114601
   -0.060630    0.117945
   -0.058498    0.121437
   -0.056367    0.125087
   -0.054235    0.128903
   -0.052104    0.132897
   -0.049972    0.137079
   -0.047840    0.141462
   -0.045709    0.146057
   -0.043577    0.150880
   -0.041446    0.155946
   -0.039314    0.161270
   -0.037183    0.166872
   -0.035051    0.172770
   -0.032920    0.178986
   -0.030788    0.185544
   -0.028657    0.192467
   -0.026525    0.199785
   -0.024394    0.207528
   -0.022262    0.215728
   -0.020131    0.224424
   -0.017999    0.233655
   -0.015868    0.243466
   -0.013736    0.253907
   -0.011605    0.265033
   -0.009473    0.276905
   -0.007342    0.289590
   -0.005210    0.303166
   -0.003079    0.317716
   -0.000947    0.333336
    0.001184    0.350133
    0.003316    0.368229
    0.005447    0.387760
    0.007579    0.408881
    0.009710    0.431770
    0.011842    0.456628
    0.013973    0.483687
    0.016105    0.513213
    0.018236    0.545514
    0.020368    0.580947
    0.022499    0.619929
    0.024631    0.662947
    0.026762    0.710574
    0.028894    0.763487
    0.031025    0.822494
    0.033157    0.888560
    0.035288    0.962847
    0.037420    1.046763
    0.039551    1.142031
    0.041683    1.250768
    0.043814    1.375605
    0.045946    1.519837
    0.048077    1.687633
    0.050209    1.884321
    0.052340    2.116795
    0.054472    2.394074
    0.056604    2.728126
    0.058735    3.135049
    0.060867    3.636827
    0.062998    4.263957
    0.065130    5.059416
    0.067261    6.084691
    0.069393    7.428822
    0.071524    9.221423
    0.073656   11.649073
    0.075787   14.967218
    0.077919   19.474215
    0.080050   25.344977
    0.082182   32.123897
    0.084313   37.919400
    0.086445   39.710424
    0.088576   36.282875
    0.090708   29.843222
    0.092839   23.242836
    0.094971   17.822803
    0.097102   13.743793
    0.099234   10.754925
    0.101365    8.563878
    0.103497    6.938338
    0.105628    5.712580
    0.107760    4.772219
    0.109891    4.038637
    0.112023    3.457351
    0.114154    2.990094
    0.116286    2.609571
    0.118417    2.295999
    0.120549    2.034819
    0.122680    1.815158
    0.124812    1.628779
    0.126943    1.469366
    0.129075    1.332014
    0.131206    1.212874
    0.133338    1.108891
    0.135469    1.017621
    0.137601    0.937089
    0.139732    0.865686
    0.141864    0.802092
    0.143995    0.745214
    0.146127    0.694146
    0.148258    0.648125
    0.150390    0.606512
    0.152521    0.568763
    0.154653    0.534417
    0.156784    0.503078
    0.158916    0.474407
    0.161048    0.448109
    0.163179    0.423932
    0.165311    0.401654
    0.167442    0.381081
    0.169574    0.362045
    0.171705    0.344396
    0.173837    0.328004
    0.175968    0.312752
    0.178100    0.298536
    0.180231    0.285267
    0.182363    0.272860
    0.184494    0.261245
    0.186626    0.250353
    0.188757    0.240128
    0.190889    0.230516
    0.193020    0.221468
    0.195152    0.212942
    0.197283    0.204898
    0.199415    0.197300
    0.201546    0.190117
    0.203678    0.183318
    0.205809    0.176878
    0.207941    0.170770
    0.210072    0.164973
    0.212204    0.159466
    0.214335    0.154229
    0.216467    0.149246
    0.218598    0.144501
    0.220730    0.139978
    0.222861    0.135663
    0.224993    0.131545
    0.227124    0.127612
    0.229256    0.123852
    0.231387    0.120256
    0.233519    0.116814
    0.235650    0.113517
    0.237782    0.110358
    0.239913    0.107329
    0.242045    0.104423
    0.244176    0.101634
    0.246308    0.098954
    0.248439    0.096379
    0.250571    0.093903
    0.252702    0.091521
    0.254834    0.089229
    0.256965    0.087022
    0.259097    0.084895
    0.261228    0.082845
    0.263360    0.080869
