# energy [H], band-resolved DOS
   -0.924810    0.018376
   -0.922360    0.018620
   -0.919909    0.018870
   -0.917458    0.019124
   -0.915008    0.019383
   -0.912557    0.019648
   -0.910106    0.019918
   -0.907656    0.020194
   -0.905205    0.020476
   -0.902754    0.020763
   -0.900304    0.021057
   -0.897853    0.021357
   -0.895402    0.021663
   -0.892952    0.021976
   -0.890501    0.022296
   -0.888050    0.022622
   -0.885600    0.022956
   -0.883149    0.023298
   -0.880699    0.023647
   -0.878248    0.024004
   -0.875797    0.024369
   -0.873347    0.024743
   -0.870896    0.025125
   -0.868445    0.025516
   -0.865995    0.025917
   -0.863544    0.026327
   -0.861093    0.026746
   -0.858643    0.027176
   -0.856192    0.027617
   -0.853741    0.028068
   -0.851291    0.028530
   -0.848840    0.029004
   -0.846389    0.029489
   -0.843939    0.029987
   -0.841488    0.030498
   -0.839038    0.031021
   -0.836587    0.031559
   -0.834136    0.032110
   -0.831686    0.032676
   -0.829235    0.033257
   -0.826784    0.033854
   -0.824334    0.034467
   -0.821883    0.035097
   -0.819432    0.035744
   -0.816982    0.036409
   -0.814531    0.037093
   -0.812080    0.037796
   -0.809630    0.038520
   -0.807179    0.039264
   -0.804728    0.040031
   -0.802278    0.040820
   -0.799827    0.041632
   -0.797376    0.042469
   -0.794926    0.043332
   -0.792475    0.044221
   -0.790025    0.045138
   -0.787574    0.046083
   -0.785123    0.047059
   -0.782673    0.048065
   -0.780222    0.049105
   -0.777771    0.050178
   -0.775321    0.051288
   -0.772870    0.052434
   -0.770419    0.053619
   -0.767969    0.054845
   -0.765518    0.056113
   -0.763067    0.057426
   -0.760617    0.058785
   -0.758166    0.060193
   -0.755715    0.061652
   -0.753265    0.063165
   -0.750814    0.064734
   -0.748364    0.066363
   -0.745913    0.068054
   -0.743462    0.069810
   -0.741012    0.071635
   -0.738561    0.073532
   -0.736110    0.075506
   -0.733660    0.077560
   -0.731209    0.079699
   -0.728758    0.081928
   -0.726308    0.084251
   -0.723857    0.086675
   -0.721406    0.089205
   -0.718956    0.091847
   -0.716505    0.094608
   -0.714054    0.097496
   -0.711604    0.100517
   -0.709153    0.103681
   -0.706703    0.106997
   -0.704252    0.110474
   -0.701801    0.114124
   -0.699351    0.117957
   -0.696900    0.121986
   -0.694449    0.126225
   -0.691999    0.130689
   -0.689548    0.135393
   -0.687097    0.140356
   -0.684647    0.145597
   -0.682196    0.151136
   -0.679745    0.156996
   -0.677295    0.163204
   -0.674844    0.169788
   -0.672393    0.176777
   -0.669943    0.184205
   -0.667492    0.192112
   -0.665042    0.200537
   -0.662591    0.209529
   -0.660140    0.219137
   -0.657690    0.229421
   -0.655239    0.240445
   -0.652788    0.252281
   -0.650338    0.265010
   -0.647887    0.278726
   -0.645436    0.293532
   -0.642986    0.309547
   -0.640535    0.326904
   -0.638084    0.345760
   -0.635634    0.366290
   -0.633183    0.388697
   -0.630732    0.413218
   -0.628282    0.440126
   -0.625831    0.469738
   -0.623380    0.502430
   -0.620930    0.538640
   -0.618479    0.578890
   -0.616029    0.623800
   -0.613578    0.674113
   -0.611127    0.730728
   -0.608677    0.794734
   -0.606226    0.867466
   -0.603775    0.950569
   -0.601325    1.046095
   -0.598874    1.156620
   -0.596423    1.285418
   -0.593973    1.436694
   -0.591522    1.615913
   -0.589071    1.830281
   -0.586621    2.089426
   -0.584170    2.406430
   -0.581719    2.799370
   -0.579269    3.293701
   -0.576818    3.925982
   -0.574368    4.749834
   -0.571917    5.845531
   -0.569466    7.335417
   -0.567016    9.407710
   -0.564565   12.348191
   -0.562114   16.559555
   -0.559664   22.467104
   -0.557213   29.986996
   -0.554762   37.170709
   -0.552312   39.722159
   -0.549861   35.506732
   -0.547410   27.878972
   -0.544960   20.707437
   -0.542509   15.283234
   -0.540058   11.456411
   -0.537608    8.782684
   -0.535157    6.889411
   -0.532707    5.520073
   -0.530256    4.506928
   -0.527805    3.740821
   -0.525355    3.149822
   -0.522904    2.685628
   -0.520453    2.315118
   -0.518003    2.015108
   -0.515552    1.769048
   -0.513101    1.564903
   -0.510651    1.393775
   -0.508200    1.248984
   -0.505749    1.125438
   -0.503299    1.019210
   -0.500848    0.927233
   -0.498397    0.847084
   -0.495947    0.776832
   -0.493496    0.714921
   -0.491045    0.660088
   -0.488595    0.611300
   -0.486144    0.567703
   -0.483694    0.528589
   -0.481243    0.493367
   -0.478792    0.461538
   -0.476342    0.432683
   -0.473891    0.406443
   -0.471440    0.382512
   -0.468990    0.360627
   -0.466539    0.340564
   -0.464088    0.322125
   -0.461638    0.305140
   -0.459187    0.289461
   -0.456736    0.274958
   -0.454286    0.261515
   -0.451835    0.249033
   -0.449384    0.237422
   -0.446934    0.226603
   -0.444483    0.216506
   -0.442033    0.207067
   -0.439582    0.198232
   -0.437131    0.189949
   -0.434681    0.182175
   -0.432230    0.174867
   -0.429779    0.167990
   -0.427329    0.161510
   -0.424878    0.155397
   -0.422427    0.149625
   -0.419977    0.144167
   -0.417526    0.139003
   -0.415075    0.134111
   -0.412625    0.129473
   -0.410174    0.125071
   -0.407723    0.120889
   -0.405273    0.116914
   -0.402822    0.113131
   -0.400372    0.109529
   -0.397921    0.106095
   -0.395470    0.102821
   -0.393020    0.099696
   -0.390569    0.096711
   -0.388118    0.093858
   -0.385668    0.091130
   -0.383217    0.088518
   -0.380766    0.086017
   -0.378316    0.083621
   -0.375865    0.081323
   -0.373414    0.079119
   -0.370964    0.077003
   -0.368513    0.074970
   -0.366062    0.073018
   -0.363612    0.071140
   -0.361161    0.069334
   -0.358711    0.067595
   -0.356260    0.065922
   -0.353809    0.064309
   -0.351359    0.062755
   -0.348908    0.061257
   -0.346457    0.059812
   -0.344007    0.058417
   -0.341556    0.057070
   -0.339105    0.055770
   -0.336655    0.054513
   -0.334204    0.053298
   -0.331753    0.052124
   -0.329303    0.050988
   -0.326852    0.049888
   -0.324401    0.048824
   -0.321951    0.047793
   -0.319500    0.046795
   -0.317049    0.045828
   -0.314599    0.044890
   -0.312148    0.043981
   -0.309698    0.043099
   -0.307247    0.042243
   -0.304796    0.041413
   -0.302346    0.040607
   -0.299895    0.039824
   -0.297444    0.039063
   -0.294994    0.038324
   -0.292543    0.037606
   -0.290092    0.036908
   -0.287642    0.036229
   -0.285191    0.035569
   -0.282740    0.034927
   -0.280290    0.034301
   -0.277839    0.033693
   -0.275388    0.033100
   -0.272938    0.032523
   -0.270487    0.031961
   -0.268037    0.031414
   -0.265586    0.030880
   -0.263135    0.030360
   -0.260685    0.029853
   -0.258234    0.029358
   -0.255783    0.028876
   -0.253333    0.028405
   -0.250882    0.027946
   -0.248431    0.027498
   -0.245981    0.027060
   -0.243530    0.026633
   -0.241079    0.026216
   -0.238629    0.025809
   -0.236178    0.025411
   -0.233727    0.025022
   -0.231277    0.024642
   -0.228826    0.024271
   -0.226376    0.023908
   -0.223925    0.023553
   -0.221474    0.023206
   -0.219024    0.022866
   -0.216573    0.022534
   -0.214122    0.022209
   -0.211672    0.021891
   -0.209221    0.021580
   -0.206770    0.021276
   -0.204320    0.020978
   -0.201869    0.020686
   -0.199418    0.020400
   -0.196968    0.020120
   -0.194517    0.019845
   -0.192066    0.019577
   -0.189616    0.019313
   -0.187165    0.019055
   -0.184715    0.018803
   -0.182264    0.018555
   -0.179813    0.018312
   -0.177363    0.018073
   -0.174912    0.017840
   -0.172461    0.017611
   -0.170011    0.017386
   -0.167560    0.017165
   -0.165109    0.016949
   -0.162659    0.016737
   -0.160208    0.016528
   -0.157757    0.016324
   -0.155307    0.016123
   -0.152856    0.015926
   -0.150405    0.015733
   -0.147955    0.015543
   -0.145504    0.015357
   -0.143053    0.015173
   -0.140603    0.014994
   -0.138152    0.014817
   -0.135702    0.014643
   -0.133251    0.014473
   -0.130800    0.014305
   -0.128350    0.014140
   -0.125899    0.013978
   -0.123448    0.013819
   -0.120998    0.013663
   -0.118547    0.013509
   -0.116096    0.013358
   -0.113646    0.013209
   -0.111195    0.013063
   -0.108744    0.012919
   -0.106294    0.012778
   -0.103843    0.012639
   -0.101392    0.012502
   -0.098942    0.012367
   -0.096491    0.012235
   -0.094041    0.012104
   -0.091590    0.011976
   -0.089139    0.011850
   -0.086689    0.011726
   -0.084238    0.011603
   -0.081787    0.011483
   -0.079337    0.011364
   -0.076886    0.011247
   -0.074435    0.011132
   -0.071985    0.011019
   -0.069534    0.010908
   -0.067083    0.010798
   -0.064633    0.010690
   -0.062182    0.010583
   -0.059731    0.010478
   -0.057281    0.010375
   -0.054830    0.010273
   -0.052380    0.010173
   -0.049929    0.010074
   -0.047478    0.009976
   -0.045028    0.009880
   -0.042577    0.009786
   -0.040126    0.009692
   -0.037676    0.009600
   -0.035225    0.009510
   -0.032774    0.009420
   -0.030324    0.009332
   -0.027873    0.009245
   -0.025422    0.009159
   -0.022972    0.009075
   -0.020521    0.008991
   -0.018070    0.008909
   -0.015620    0.008828
   -0.013169    0.008748
   -0.010719    0.008669
   -0.008268    0.008591
   -0.005817    0.008514
   -0.003367    0.008439
   -0.000916    0.008364
    0.001535    0.008290
    0.003985    0.008217
    0.006436    0.008145
    0.008887    0.008074
    0.011337    0.008004
    0.013788    0.007935
    0.016239    0.007867
    0.018689    0.007800
    0.021140    0.007733
    0.023591    0.007668
    0.026041    0.007603
    0.028492    0.007539
    0.030943    0.007476
    0.033393    0.007413
    0.035844    0.007352
    0.038294    0.007291
    0.040745    0.007231
    0.043196    0.007171
    0.045646    0.007113
    0.048097    0.007055
    0.050548    0.006998
    0.052998    0.006941
    0.055449    0.006885
    0.057900    0.006830
    0.060350    0.006776
    0.062801    0.006722
    0.065252    0.006669
    0.067702    0.006616
    0.070153    0.006564
    0.072604    0.006513
    0.075054    0.006462
    0.077505    0.006412
    0.079955    0.006362
    0.082406    0.006313
    0.084857    0.006265
    0.087307    0.006217
    0.089758    0.006170
    0.092209    0.006123
    0.094659    0.006077
    0.097110    0.006031
    0.099561    0.005986
    0.102011    0.005941
    0.104462    0.005897
    0.106913    0.005853
    0.109363    0.005810
    0.111814    0.005767
    0.114265    0.005725
    0.116715    0.005683
    0.119166    0.005641
    0.121616    0.005601
    0.124067    0.005560
    0.126518    0.005520
    0.128968    0.005480
    0.131419    0.005441
    0.133870    0.005402
    0.136320    0.005364
    0.138771    0.005326
    0.141222    0.005289
    0.143672    0.005251
    0.146123    0.005215
    0.148574    0.005178
    0.151024    0.005142
    0.153475    0.005107
    0.155926    0.005071
    0.158376    0.005036
    0.160827    0.005002
    0.163277    0.004968
    0.165728    0.004934
    0.168179    0.004900
    0.170629    0.004867
    0.173080    0.004834
    0.175531    0.004802
    0.177981    0.004770
    0.180432    0.004738
    0.182883    0.004706
    0.185333    0.004675
    0.187784    0.004644
    0.190235    0.004614
    0.192685    0.004584
    0.195136    0.004554
    0.197587    0.004524
    0.200037    0.004494
    0.202488    0.004465
    0.204939    0.004436
    0.207389    0.004408
    0.209840    0.004380
    0.212290    0.004352
    0.214741    0.004324
    0.217192    0.004296
    0.219642    0.004269
    0.222093    0.004242
    0.224544    0.004215
    0.226994    0.004189
    0.229445    0.004163
    0.231896    0.004137
    0.234346    0.004111
    0.236797    0.004086
    0.239248    0.004060
    0.241698    0.004035
    0.244149    0.004011
    0.246600    0.003986
    0.249050    0.003962
    0.251501    0.003938
    0.253951    0.003914
    0.256402    0.003890
    0.258853    0.003867
    0.261303    0.003843
    0.263754    0.003820
    0.266205    0.003797
    0.268655    0.003775
    0.271106    0.003752
    0.273557    0.003730
    0.276007    0.003708
    0.278458    0.003686
    0.280909    0.003665
    0.283359    0.003643
    0.285810    0.003622
    0.288261    0.003601
    0.290711    0.003580
    0.293162    0.003559
    0.295612    0.003539
    0.298063    0.003518
