# energy [H], band-resolved DOS
   -0.924810    0.006730
   -0.922360    0.006784
   -0.919909    0.006839
   -0.917458    0.006894
   -0.915008    0.006950
   -0.912557    0.007006
   -0.910106    0.007064
   -0.907656    0.007122
   -0.905205    0.007181
   -0.902754    0.007240
   -0.900304    0.007300
   -0.897853    0.007361
   -0.895402    0.007423
   -0.892952    0.007485
   -0.890501    0.007549
   -0.888050    0.007613
   -0.885600    0.007678
   -0.883149    0.007743
   -0.880699    0.007810
   -0.878248    0.007877
   -0.875797    0.007946
   -0.873347    0.008015
   -0.870896    0.008085
   -0.868445    0.008156
   -0.865995    0.008228
   -0.863544    0.008301
   -0.861093    0.008375
   -0.858643    0.008450
   -0.856192    0.008526
   -0.853741    0.008603
   -0.851291    0.008681
   -0.848840    0.008760
   -0.846389    0.008840
   -0.843939    0.008922
   -0.841488    0.009004
   -0.839038    0.009088
   -0.836587    0.009172
   -0.834136    0.009258
   -0.831686    0.009345
   -0.829235    0.009434
   -0.826784    0.009523
   -0.824334    0.009614
   -0.821883    0.009706
   -0.819432    0.009800
   -0.816982    0.009895
   -0.814531    0.009991
   -0.812080    0.010089
   -0.809630    0.010188
   -0.807179    0.010289
   -0.804728    0.010391
   -0.802278    0.010494
   -0.799827    0.010599
   -0.797376    0.010706
   -0.794926    0.010815
   -0.792475    0.010925
   -0.790025    0.011036
   -0.787574    0.011150
   -0.785123    0.011265
   -0.782673    0.011382
   -0.780222    0.011501
   -0.777771    0.011622
   -0.775321    0.011744
   -0.772870    0.011869
   -0.770419    0.011996
   -0.767969    0.012124
   -0.765518    0.012255
   -0.763067    0.012388
   -0.760617    0.012523
   -0.758166    0.012660
   -0.755715    0.012799
   -0.753265    0.012941
   -0.750814    0.013085
   -0.748364    0.013232
   -0.745913    0.013381
   -0.743462    0.013532
   -0.741012    0.013687
   -0.738561    0.013843
   -0.736110    0.014003
   -0.733660    0.014165
   -0.731209    0.014330
   -0.728758    0.014499
   -0.726308    0.014670
   -0.723857    0.014844
   -0.721406    0.015021
   -0.718956    0.015201
   -0.716505    0.015385
   -0.714054    0.015572
   -0.711604    0.015762
   -0.709153    0.015956
   -0.706703    0.016154
   -0.704252    0.016355
   -0.701801    0.016560
   -0.699351    0.016769
   -0.696900    0.016982
   -0.694449    0.017199
   -0.691999    0.017420
   -0.689548    0.017645
   -0.687097    0.017875
   -0.684647    0.018109
   -0.682196    0.018348
   -0.679745    0.018592
   -0.677295    0.018841
   -0.674844    0.019094
   -0.672393    0.019353
   -0.669943    0.019617
   -0.667492    0.019887
   -0.665042    0.020162
   -0.662591    0.020443
   -0.660140    0.020730
   -0.657690    0.021023
   -0.655239    0.021322
   -0.652788    0.021627
   -0.650338    0.021940
   -0.647887    0.022259
   -0.645436    0.022585
   -0.642986    0.022918
   -0.640535    0.023258
   -0.638084    0.023607
   -0.635634    0.023963
   -0.633183    0.024327
   -0.630732    0.024700
   -0.628282    0.025081
   -0.625831    0.025471
   -0.623380    0.025871
   -0.620930    0.026279
   -0.618479    0.026698
   -0.616029    0.027127
   -0.613578    0.027566
   -0.611127    0.028015
   -0.608677    0.028476
   -0.606226    0.028949
   -0.603775    0.029433
   -0.601325    0.029929
   -0.598874    0.030438
   -0.596423    0.030961
   -0.593973    0.031496
   -0.591522    0.032046
   -0.589071    0.032611
   -0.586621    0.033190
   -0.584170    0.033785
   -0.581719    0.034396
   -0.579269    0.035024
   -0.576818    0.035669
   -0.574368    0.036332
   -0.571917    0.037014
   -0.569466    0.037715
   -0.567016    0.038436
   -0.564565    0.039178
   -0.562114    0.039942
   -0.559664    0.040728
   -0.557213    0.041538
   -0.554762    0.042372
   -0.552312    0.043232
   -0.549861    0.044118
   -0.547410    0.045031
   -0.544960    0.045973
   -0.542509    0.046945
   -0.540058    0.047948
   -0.537608    0.048984
   -0.535157    0.050054
   -0.532707    0.051159
   -0.530256    0.052300
   -0.527805    0.053481
   -0.525355    0.054702
   -0.522904    0.055965
   -0.520453    0.057273
   -0.518003    0.058627
   -0.515552    0.060029
   -0.513101    0.061482
   -0.510651    0.062989
   -0.508200    0.064552
   -0.505749    0.066173
   -0.503299    0.067857
   -0.500848    0.069605
   -0.498397    0.071422
   -0.495947    0.073311
   -0.493496    0.075276
   -0.491045    0.077320
   -0.488595    0.079449
   -0.486144    0.081668
   -0.483694    0.083980
   -0.481243    0.086392
   -0.478792    0.088910
   -0.476342    0.091538
   -0.473891    0.094286
   -0.471440    0.097158
   -0.468990    0.100164
   -0.466539    0.103311
   -0.464088    0.106609
   -0.461638    0.110067
   -0.459187    0.113696
   -0.456736    0.117508
   -0.454286    0.121514
   -0.451835    0.125728
   -0.449384    0.130165
   -0.446934    0.134841
   -0.444483    0.139774
   -0.442033    0.144981
   -0.439582    0.150485
   -0.437131    0.156308
   -0.434681    0.162475
   -0.432230    0.169013
   -0.429779    0.175954
   -0.427329    0.183331
   -0.424878    0.191180
   -0.422427    0.199544
   -0.419977    0.208468
   -0.417526    0.218003
   -0.415075    0.228207
   -0.412625    0.239142
   -0.410174    0.250881
   -0.407723    0.263503
   -0.405273    0.277101
   -0.402822    0.291776
   -0.400372    0.307646
   -0.397921    0.324842
   -0.395470    0.343518
   -0.393020    0.363846
   -0.390569    0.386027
   -0.388118    0.410293
   -0.385668    0.436911
   -0.383217    0.466196
   -0.380766    0.498514
   -0.378316    0.534296
   -0.375865    0.574053
   -0.373414    0.618394
   -0.370964    0.668046
   -0.368513    0.723888
   -0.366062    0.786984
   -0.363612    0.858639
   -0.361161    0.940458
   -0.358711    1.034440
   -0.356260    1.143095
   -0.353809    1.269606
   -0.351359    1.418056
   -0.348908    1.593745
   -0.346457    1.803649
   -0.344007    2.057076
   -0.341556    2.366643
   -0.339105    2.749756
   -0.336655    3.230864
   -0.334204    3.845005
   -0.331753    4.643442
   -0.329303    5.702747
   -0.326852    7.139411
   -0.324401    9.132596
   -0.321951   11.955279
   -0.319500   15.997677
   -0.317049   21.696711
   -0.314599   29.080213
   -0.312148   36.493425
   -0.309698   39.787382
   -0.307247   36.255736
   -0.304796   28.779517
   -0.302346   21.445939
   -0.299895   15.815863
   -0.297444   11.828260
   -0.294994    9.043573
   -0.292543    7.075884
   -0.290092    5.656388
   -0.287642    4.608841
   -0.285191    3.818628
   -0.282740    3.210367
   -0.280290    2.733552
   -0.277839    2.353634
   -0.275388    2.046488
   -0.272938    1.794926
   -0.270487    1.586478
   -0.268037    1.411941
   -0.265586    1.264415
   -0.263135    1.138653
   -0.260685    1.030610
   -0.258234    0.937133
   -0.255783    0.855735
   -0.253333    0.784433
   -0.250882    0.721636
   -0.248431    0.666048
   -0.245981    0.616613
   -0.243530    0.572459
   -0.241079    0.532864
   -0.238629    0.497222
   -0.236178    0.465028
   -0.233727    0.435851
   -0.231277    0.409327
   -0.228826    0.385146
   -0.226376    0.363039
   -0.223925    0.342777
   -0.221474    0.324161
   -0.219024    0.307018
   -0.216573    0.291196
   -0.214122    0.276564
   -0.211672    0.263005
   -0.209221    0.250418
   -0.206770    0.238711
   -0.204320    0.227805
   -0.201869    0.217628
   -0.199418    0.208117
   -0.196968    0.199216
   -0.194517    0.190872
   -0.192066    0.183041
   -0.189616    0.175682
   -0.187165    0.168757
   -0.184715    0.162233
   -0.182264    0.156080
   -0.179813    0.150270
   -0.177363    0.144778
   -0.174912    0.139581
   -0.172461    0.134659
   -0.170011    0.129992
   -0.167560    0.125564
   -0.165109    0.121358
   -0.162659    0.117359
   -0.160208    0.113555
   -0.157757    0.109933
   -0.155307    0.106481
   -0.152856    0.103189
   -0.150405    0.100047
   -0.147955    0.097046
   -0.145504    0.094179
   -0.143053    0.091436
   -0.140603    0.088812
   -0.138152    0.086298
   -0.135702    0.083890
   -0.133251    0.081582
   -0.130800    0.079367
   -0.128350    0.077241
   -0.125899    0.075199
   -0.123448    0.073237
   -0.120998    0.071351
   -0.118547    0.069537
   -0.116096    0.067791
   -0.113646    0.066110
   -0.111195    0.064491
   -0.108744    0.062931
   -0.106294    0.061426
   -0.103843    0.059975
   -0.101392    0.058574
   -0.098942    0.057222
   -0.096491    0.055916
   -0.094041    0.054655
   -0.091590    0.053435
   -0.089139    0.052256
   -0.086689    0.051116
   -0.084238    0.050012
   -0.081787    0.048944
   -0.079337    0.047910
   -0.076886    0.046908
   -0.074435    0.045937
   -0.071985    0.044996
   -0.069534    0.044083
   -0.067083    0.043199
   -0.064633    0.042340
   -0.062182    0.041507
   -0.059731    0.040698
   -0.057281    0.039912
   -0.054830    0.039149
   -0.052380    0.038408
   -0.049929    0.037688
   -0.047478    0.036987
   -0.045028    0.036306
   -0.042577    0.035644
   -0.040126    0.034999
   -0.037676    0.034372
   -0.035225    0.033762
   -0.032774    0.033168
   -0.030324    0.032589
   -0.027873    0.032025
   -0.025422    0.031476
   -0.022972    0.030941
   -0.020521    0.030419
   -0.018070    0.029910
   -0.015620    0.029414
   -0.013169    0.028930
   -0.010719    0.028459
   -0.008268    0.027998
   -0.005817    0.027549
   -0.003367    0.027110
   -0.000916    0.026682
    0.001535    0.026264
    0.003985    0.025855
    0.006436    0.025456
    0.008887    0.025066
    0.011337    0.024685
    0.013788    0.024313
    0.016239    0.023949
    0.018689    0.023593
    0.021140    0.023245
    0.023591    0.022905
    0.026041    0.022572
    0.028492    0.022246
    0.030943    0.021928
    0.033393    0.021616
    0.035844    0.021310
    0.038294    0.021011
    0.040745    0.020719
    0.043196    0.020432
    0.045646    0.020152
    0.048097    0.019877
    0.050548    0.019607
    0.052998    0.019343
    0.055449    0.019085
    0.057900    0.018831
    0.060350    0.018583
    0.062801    0.018339
    0.065252    0.018100
    0.067702    0.017866
    0.070153    0.017637
    0.072604    0.017411
    0.075054    0.017190
    0.077505    0.016974
    0.079955    0.016761
    0.082406    0.016552
    0.084857    0.016347
    0.087307    0.016146
    0.089758    0.015949
    0.092209    0.015755
    0.094659    0.015565
    0.097110    0.015378
    0.099561    0.015194
    0.102011    0.015014
    0.104462    0.014837
    0.106913    0.014663
    0.109363    0.014492
    0.111814    0.014324
    0.114265    0.014159
    0.116715    0.013997
    0.119166    0.013837
    0.121616    0.013681
    0.124067    0.013527
    0.126518    0.013375
    0.128968    0.013226
    0.131419    0.013080
    0.133870    0.012936
    0.136320    0.012794
    0.138771    0.012655
    0.141222    0.012517
    0.143672    0.012383
    0.146123    0.012250
    0.148574    0.012119
    0.151024    0.011991
    0.153475    0.011864
    0.155926    0.011740
    0.158376    0.011617
    0.160827    0.011496
    0.163277    0.011378
    0.165728    0.011261
    0.168179    0.011146
    0.170629    0.011032
    0.173080    0.010921
    0.175531    0.010811
    0.177981    0.010702
    0.180432    0.010595
    0.182883    0.010490
    0.185333    0.010387
    0.187784    0.010285
    0.190235    0.010184
    0.192685    0.010085
    0.195136    0.009987
    0.197587    0.009891
    0.200037    0.009796
    0.202488    0.009703
    0.204939    0.009611
    0.207389    0.009520
    0.209840    0.009430
    0.212290    0.009342
    0.214741    0.009255
    0.217192    0.009169
    0.219642    0.009084
    0.222093    0.009001
    0.224544    0.008919
    0.226994    0.008837
    0.229445    0.008757
    0.231896    0.008678
    0.234346    0.008600
    0.236797    0.008523
    0.239248    0.008447
    0.241698    0.008372
    0.244149    0.008298
    0.246600    0.008226
    0.249050    0.008154
    0.251501    0.008083
    0.253951    0.008012
    0.256402    0.007943
    0.258853    0.007875
    0.261303    0.007807
    0.263754    0.007741
    0.266205    0.007675
    0.268655    0.007610
    0.271106    0.007546
    0.273557    0.007483
    0.276007    0.007420
    0.278458    0.007359
    0.280909    0.007298
    0.283359    0.007238
    0.285810    0.007178
    0.288261    0.007120
    0.290711    0.007062
    0.293162    0.007004
    0.295612    0.006948
    0.298063    0.006892
