# energy [H], total DOS (spin-resolved)
   -0.924810    0.038882
   -0.922360    0.039246
   -0.919909    0.039616
   -0.917458    0.039993
   -0.915008    0.040375
   -0.912557    0.040764
   -0.910106    0.041159
   -0.907656    0.041562
   -0.905205    0.041971
   -0.902754    0.042387
   -0.900304    0.042810
   -0.897853    0.043241
   -0.895402    0.043680
   -0.892952    0.044126
   -0.890501    0.044581
   -0.888050    0.045044
   -0.885600    0.045515
   -0.883149    0.045995
   -0.880699    0.046484
   -0.878248    0.046982
   -0.875797    0.047490
   -0.873347    0.048008
   -0.870896    0.048535
   -0.868445    0.049073
   -0.865995    0.049621
   -0.863544    0.050181
   -0.861093    0.050751
   -0.858643    0.051333
   -0.856192    0.051927
   -0.853741    0.052534
   -0.851291    0.053153
   -0.848840    0.053785
   -0.846389    0.054430
   -0.843939    0.055090
   -0.841488    0.055764
   -0.839038    0.056452
   -0.836587    0.057156
   -0.834136    0.057875
   -0.831686    0.058611
   -0.829235    0.059364
   -0.826784    0.060134
   -0.824334    0.060921
   -0.821883    0.061728
   -0.819432    0.062554
   -0.816982    0.063399
   -0.814531    0.064265
   -0.812080    0.065153
   -0.809630    0.066062
   -0.807179    0.066995
   -0.804728    0.067951
   -0.802278    0.068932
   -0.799827    0.069939
   -0.797376    0.070972
   -0.794926    0.072032
   -0.792475    0.073122
   -0.790025    0.074241
   -0.787574    0.075391
   -0.785123    0.076573
   -0.782673    0.077789
   -0.780222    0.079039
   -0.777771    0.080326
   -0.775321    0.081651
   -0.772870    0.083016
   -0.770419    0.084422
   -0.767969    0.085871
   -0.765518    0.087364
   -0.763067    0.088905
   -0.760617    0.090495
   -0.758166    0.092136
   -0.755715    0.093832
   -0.753265    0.095583
   -0.750814    0.097394
   -0.748364    0.099266
   -0.745913    0.101204
   -0.743462    0.103210
   -0.741012    0.105287
   -0.738561    0.107440
   -0.736110    0.109672
   -0.733660    0.111988
   -0.731209    0.114392
   -0.728758    0.116889
   -0.726308    0.119483
   -0.723857    0.122181
   -0.721406    0.124988
   -0.718956    0.127911
   -0.716505    0.130957
   -0.714054    0.134132
   -0.711604    0.137444
   -0.709153    0.140903
   -0.706703    0.144517
   -0.704252    0.148297
   -0.701801    0.152252
   -0.699351    0.156394
   -0.696900    0.160737
   -0.694449    0.165294
   -0.691999    0.170079
   -0.689548    0.175109
   -0.687097    0.180401
   -0.684647    0.185975
   -0.682196    0.191853
   -0.679745    0.198056
   -0.677295    0.204611
   -0.674844    0.211546
   -0.672393    0.218891
   -0.669943    0.226680
   -0.667492    0.234952
   -0.665042    0.243748
   -0.662591    0.253115
   -0.660140    0.263104
   -0.657690    0.273774
   -0.655239    0.285188
   -0.652788    0.297420
   -0.650338    0.310551
   -0.647887    0.324674
   -0.645436    0.339893
   -0.642986    0.356326
   -0.640535    0.374108
   -0.638084    0.393394
   -0.635634    0.414360
   -0.633183    0.437210
   -0.630732    0.462180
   -0.628282    0.489542
   -0.625831    0.519617
   -0.623380    0.552777
   -0.620930    0.589462
   -0.618479    0.630194
   -0.616029    0.675593
   -0.613578    0.726404
   -0.611127    0.783523
   -0.608677    0.848040
   -0.606226    0.921291
   -0.603775    1.004921
   -0.601325    1.100982
   -0.598874    1.212050
   -0.596423    1.341400
   -0.593973    1.493236
   -0.591522    1.673025
   -0.589071    1.887970
   -0.586621    2.147701
   -0.584170    2.465302
   -0.581719    2.858848
   -0.579269    3.353794
   -0.576818    3.986700
   -0.574368    4.811187
   -0.571917    5.907529
   -0.569466    7.398072
   -0.567016    9.471032
   -0.564565   12.412191
   -0.562114   16.624244
   -0.559664   22.532495
   -0.557213   30.053100
   -0.554762   37.237537
   -0.552312   39.789724
   -0.549861   35.575047
   -0.547410   27.948051
   -0.544960   20.777292
   -0.542509   15.353879
   -0.540058   11.527860
   -0.537608    8.854950
   -0.535157    6.962510
   -0.532707    5.594020
   -0.530256    4.581738
   -0.527805    3.816509
   -0.525355    3.226405
   -0.522904    2.763123
   -0.520453    2.393542
   -0.518003    2.094478
   -0.515552    1.849381
   -0.513101    1.646218
   -0.510651    1.476092
   -0.508200    1.332320
   -0.505749    1.209814
   -0.503299    1.104647
   -0.500848    1.013751
   -0.498397    0.934705
   -0.495947    0.865577
   -0.493496    0.804813
   -0.491045    0.751151
   -0.488595    0.703557
   -0.486144    0.661179
   -0.483694    0.623310
   -0.481243    0.589358
   -0.478792    0.558826
   -0.476342    0.531296
   -0.473891    0.506408
   -0.471440    0.483860
   -0.468990    0.463388
   -0.466539    0.444768
   -0.464088    0.427804
   -0.461638    0.412327
   -0.459187    0.398190
   -0.456736    0.385264
   -0.454286    0.373434
   -0.451835    0.362602
   -0.449384    0.352679
   -0.446934    0.343588
   -0.444483    0.335260
   -0.442033    0.327632
   -0.439582    0.320652
   -0.437131    0.314269
   -0.434681    0.308440
   -0.432230    0.303127
   -0.429779    0.298294
   -0.427329    0.293910
   -0.424878    0.289946
   -0.422427    0.286378
   -0.419977    0.283182
   -0.417526    0.280339
   -0.415075    0.277828
   -0.412625    0.275635
   -0.410174    0.273745
   -0.407723    0.272143
   -0.405273    0.270818
   -0.402822    0.269759
   -0.400372    0.268958
   -0.397921    0.268405
   -0.395470    0.268093
   -0.393020    0.268017
   -0.390569    0.268170
   -0.388118    0.268548
   -0.385668    0.269147
   -0.383217    0.269964
   -0.380766    0.270996
   -0.378316    0.272242
   -0.375865    0.273701
   -0.373414    0.275373
   -0.370964    0.277257
   -0.368513    0.279355
   -0.366062    0.281667
   -0.363612    0.284197
   -0.361161    0.286947
   -0.358711    0.289919
   -0.356260    0.293119
   -0.353809    0.296551
   -0.351359    0.300219
   -0.348908    0.304131
   -0.346457    0.308292
   -0.344007    0.312711
   -0.341556    0.317394
   -0.339105    0.322352
   -0.336655    0.327595
   -0.334204    0.333133
   -0.331753    0.338977
   -0.329303    0.345142
   -0.326852    0.351640
   -0.324401    0.358487
   -0.321951    0.365699
   -0.319500    0.373295
   -0.317049    0.381294
   -0.314599    0.389716
   -0.312148    0.398585
   -0.309698    0.407925
   -0.307247    0.417763
   -0.304796    0.428128
   -0.302346    0.439052
   -0.299895    0.450569
   -0.297444    0.462717
   -0.294994    0.475536
   -0.292543    0.489072
   -0.290092    0.503371
   -0.287642    0.518489
   -0.285191    0.534482
   -0.282740    0.551415
   -0.280290    0.569357
   -0.277839    0.588385
   -0.275388    0.608585
   -0.272938    0.630050
   -0.270487    0.652882
   -0.268037    0.677197
   -0.265586    0.703121
   -0.263135    0.730796
   -0.260685    0.760378
   -0.258234    0.792045
   -0.255783    0.825992
   -0.253333    0.862441
   -0.250882    0.901641
   -0.248431    0.943872
   -0.245981    0.989452
   -0.243530    1.038744
   -0.241079    1.092158
   -0.238629    1.150165
   -0.236178    1.213305
   -0.233727    1.282201
   -0.231277    1.357571
   -0.228826    1.440253
   -0.226376    1.531221
   -0.223925    1.631619
   -0.221474    1.742795
   -0.219024    1.866346
   -0.216573    2.004175
   -0.214122    2.158567
   -0.211672    2.332276
   -0.209221    2.528654
   -0.206770    2.751807
   -0.204320    3.006808
   -0.201869    3.299979
   -0.199418    3.639277
   -0.196968    4.034821
   -0.194517    4.499627
   -0.192066    5.050643
   -0.189616    5.710238
   -0.187165    6.508376
   -0.184715    7.485837
   -0.182264    8.699099
   -0.179813   10.227873
   -0.177363   12.186937
   -0.174912   14.745055
   -0.172461   18.155483
   -0.170011   22.804886
   -0.167560   29.288135
   -0.165109   38.504396
   -0.162659   51.698437
   -0.160208   70.088517
   -0.157757   93.005957
   -0.155307  113.626694
   -0.152856  118.812747
   -0.150405  104.167833
   -0.147955   80.982583
   -0.145504   60.035553
   -0.143053   44.410859
   -0.140603   33.425472
   -0.138152   25.745164
   -0.135702   20.295348
   -0.133251   16.344187
   -0.130800   13.414170
   -0.128350   11.194287
   -0.125899    9.479172
   -0.123448    8.130574
   -0.120998    7.053459
   -0.118547    6.181143
   -0.116096    5.465920
   -0.113646    4.873035
   -0.111195    4.376742
   -0.108744    3.957681
   -0.106294    3.601082
   -0.103843    3.295539
   -0.101392    3.032136
   -0.098942    2.803832
   -0.096491    2.605009
   -0.094041    2.431149
   -0.091590    2.278586
   -0.089139    2.144325
   -0.086689    2.025900
   -0.084238    1.921276
   -0.081787    1.828758
   -0.079337    1.746931
   -0.076886    1.674611
   -0.074435    1.610804
   -0.071985    1.554675
   -0.069534    1.505523
   -0.067083    1.462760
   -0.064633    1.425900
   -0.062182    1.394538
   -0.059731    1.368348
   -0.057281    1.347071
   -0.054830    1.330512
   -0.052380    1.318533
   -0.049929    1.311052
   -0.047478    1.308043
   -0.045028    1.309537
   -0.042577    1.315619
   -0.040126    1.326438
   -0.037676    1.342210
   -0.035225    1.363227
   -0.032774    1.389863
   -0.030324    1.422595
   -0.027873    1.462018
   -0.025422    1.508868
   -0.022972    1.564053
   -0.020521    1.628696
   -0.018070    1.704188
   -0.015620    1.792258
   -0.013169    1.895070
   -0.010719    2.015352
   -0.008268    2.156575
   -0.005817    2.323200
   -0.003367    2.521029
   -0.000916    2.757706
    0.001535    3.043450
    0.003985    3.392141
    0.006436    3.822964
    0.008887    4.362947
    0.011337    5.050950
    0.013788    5.944029
    0.016239    7.127710
    0.018689    8.732448
    0.021140   10.958744
    0.023591   14.109225
    0.026041   18.601444
    0.028492   24.838858
    0.030943   32.576456
    0.033393   39.489947
    0.035844   41.196375
    0.038294   36.339858
    0.040745   28.740503
    0.043196   21.948940
    0.045646   16.959114
    0.048097   13.537982
    0.050548   11.247679
    0.052998    9.740716
    0.055449    8.786059
    0.057900    8.240344
    0.060350    8.020160
    0.062801    8.083994
    0.065252    8.422636
    0.067702    9.056117
    0.070153   10.036369
    0.072604   11.456220
    0.075054   13.466898
    0.077505   16.308035
    0.079955   20.355016
    0.082406   26.182002
    0.084857   34.597469
    0.087307   46.440110
    0.089758   61.468632
    0.092209   75.609315
    0.094659   80.207418
    0.097110   71.344986
    0.099561   55.972125
    0.102011   41.683054
    0.104462   30.911419
    0.106913   23.311253
    0.109363   17.992397
    0.111814   14.216951
    0.114265   11.478456
    0.116715    9.445875
    0.119166    7.903677
    0.121616    6.709709
    0.124067    5.768398
    0.126518    5.014130
    0.128968    4.400916
    0.131419    3.895882
    0.133870    3.475092
    0.136320    3.120821
    0.138771    2.819739
    0.141222    2.561675
    0.143672    2.338769
    0.146123    2.144873
    0.148574    1.975121
    0.151024    1.825628
    0.153475    1.693260
    0.155926    1.575467
    0.158376    1.470156
    0.160827    1.375599
    0.163277    1.290359
    0.165728    1.213230
    0.168179    1.143197
    0.170629    1.079401
    0.173080    1.021108
    0.175531    0.967690
    0.177981    0.918608
    0.180432    0.873395
    0.182883    0.831645
    0.185333    0.793007
    0.187784    0.757170
    0.190235    0.723865
    0.192685    0.692852
    0.195136    0.663921
    0.197587    0.636884
    0.200037    0.611576
    0.202488    0.587848
    0.204939    0.565567
    0.207389    0.544616
    0.209840    0.524888
    0.212290    0.506286
    0.214741    0.488723
    0.217192    0.472123
    0.219642    0.456413
    0.222093    0.441529
    0.224544    0.427412
    0.226994    0.414009
    0.229445    0.401271
    0.231896    0.389154
    0.234346    0.377616
    0.236797    0.366620
    0.239248    0.356131
    0.241698    0.346118
    0.244149    0.336552
    0.246600    0.327404
    0.249050    0.318652
    0.251501    0.310270
    0.253951    0.302238
    0.256402    0.294536
    0.258853    0.287146
    0.261303    0.280050
    0.263754    0.273232
    0.266205    0.266678
    0.268655    0.260374
    0.271106    0.254306
    0.273557    0.248463
    0.276007    0.242833
    0.278458    0.237406
    0.280909    0.232171
    0.283359    0.227119
    0.285810    0.222242
    0.288261    0.217532
    0.290711    0.212979
    0.293162    0.208579
    0.295612    0.204322
    0.298063    0.200203
